freq,psd_x,psd_y,psd_z,psd_xyz
0.0,4.338e+02,1.919e+01,1.864e+01,4.716e+02
1.7,5.833e+02,3.330e+01,4.368e+01,6.603e+02
3.4,4.794e+02,3.723e+01,4.413e+01,5.607e+02
5.1,1.268e+03,3.851e+01,4.731e+01,1.354e+03
6.8,2.923e+03,4.463e+01,4.772e+01,3.015e+03
8.6,4.691e+03,6.248e+01,4.682e+01,4.801e+03
10.3,7.929e+03,1.180e+02,4.736e+01,8.095e+03
12.0,1.228e+04,9.684e+01,4.519e+01,1.242e+04
13.7,7.957e+03,9.080e+01,4.814e+01,8.096e+03
15.4,6.018e+03,7.390e+01,5.234e+01,6.144e+03
17.1,9.706e+03,5.892e+01,5.291e+01,9.818e+03
18.8,1.358e+04,5.434e+01,5.172e+01,1.369e+04
20.5,1.757e+04,1.299e+02,5.781e+01,1.776e+04
22.3,2.152e+04,2.765e+02,8.753e+01,2.188e+04
24.0,2.645e+04,1.859e+02,8.995e+01,2.673e+04
25.7,3.179e+04,1.415e+02,6.082e+01,3.199e+04
27.4,3.853e+04,1.300e+02,5.650e+01,3.871e+04
29.1,4.617e+04,1.305e+02,4.430e+01,4.635e+04
30.8,5.965e+04,1.819e+02,5.188e+01,5.988e+04
32.5,7.785e+04,4.496e+02,1.374e+02,7.843e+04
34.2,7.374e+04,1.064e+03,2.981e+02,7.510e+04
36.0,6.095e+04,1.406e+03,3.228e+02,6.268e+04
37.7,6.627e+04,1.674e+03,2.303e+02,6.817e+04
39.4,8.293e+04,2.130e+03,1.112e+02,8.517e+04
41.1,1.168e+05,2.736e+03,7.329e+01,1.197e+05
42.8,1.649e+05,4.534e+03,1.548e+02,1.696e+05
44.5,2.244e+05,5.339e+03,3.142e+02,2.300e+05
46.2,3.632e+05,4.625e+03,4.681e+02,3.683e+05
47.9,6.273e+05,4.528e+03,7.560e+02,6.326e+05
49.6,9.344e+05,5.427e+03,1.107e+03,9.409e+05
51.4,1.090e+06,3.785e+03,1.544e+03,1.095e+06
53.1,9.257e+05,2.113e+03,3.162e+03,9.310e+05
54.8,7.265e+05,2.510e+03,3.871e+03,7.329e+05
56.5,5.018e+05,1.669e+03,2.979e+03,5.064e+05
58.2,3.101e+05,8.631e+02,2.235e+03,3.132e+05
59.9,2.875e+05,2.369e+03,4.170e+03,2.940e+05
61.6,2.916e+05,5.032e+03,6.635e+03,3.033e+05
63.3,2.445e+05,7.309e+03,7.763e+03,2.595e+05
65.1,2.107e+05,8.251e+03,7.479e+03,2.264e+05
66.8,1.952e+05,8.097e+03,6.793e+03,2.101e+05
68.5,1.750e+05,7.727e+03,5.841e+03,1.886e+05
70.2,1.591e+05,7.560e+03,5.174e+03,1.718e+05
71.9,1.404e+05,5.917e+03,4.216e+03,1.506e+05
73.6,1.163e+05,4.289e+03,4.071e+03,1.246e+05
75.3,8.963e+04,3.727e+03,5.646e+03,9.900e+04
77.0,6.846e+04,6.079e+03,1.046e+04,8.499e+04
78.8,5.957e+04,1.394e+04,2.039e+04,9.389e+04
80.5,6.258e+04,2.506e+04,3.245e+04,1.201e+05
82.2,6.300e+04,2.986e+04,3.640e+04,1.293e+05
83.9,5.769e+04,3.126e+04,3.509e+04,1.240e+05
85.6,5.083e+04,3.117e+04,3.285e+04,1.149e+05
87.3,4.347e+04,3.177e+04,3.194e+04,1.072e+05
89.0,3.732e+04,3.284e+04,3.208e+04,1.022e+05
90.7,3.182e+04,3.214e+04,3.085e+04,9.481e+04
92.5,2.612e+04,2.901e+04,2.762e+04,8.274e+04
94.2,2.090e+04,2.486e+04,2.312e+04,6.888e+04
95.9,1.610e+04,2.267e+04,2.008e+04,5.885e+04
97.6,1.289e+04,2.439e+04,2.035e+04,5.763e+04
99.3,1.001e+04,2.735e+04,2.152e+04,5.888e+04
101.0,8.216e+03,2.894e+04,2.187e+04,5.902e+04
102.7,6.602e+03,2.883e+04,2.063e+04,5.607e+04
104.4,5.005e+03,2.469e+04,1.722e+04,4.692e+04
106.1,4.271e+03,2.627e+04,1.949e+04,5.004e+04
107.9,3.661e+03,2.973e+04,2.124e+04,5.463e+04
109.6,3.930e+03,3.114e+04,2.094e+04,5.601e+04
111.3,5.985e+03,3.159e+04,1.990e+04,5.748e+04
113.0,1.185e+04,3.217e+04,1.871e+04,6.274e+04
114.7,2.483e+04,3.159e+04,1.695e+04,7.337e+04
116.4,1.030e+05,3.152e+04,1.670e+04,1.512e+05
118.1,4.747e+05,4.166e+04,2.763e+04,5.439e+05
119.8,4.411e+05,3.097e+04,3.240e+04,5.045e+05
121.6,3.611e+05,2.664e+04,3.793e+04,4.257e+05
123.3,3.166e+05,3.139e+04,4.146e+04,3.894e+05
125.0,2.357e+05,3.608e+04,3.798e+04,3.098e+05
126.7,1.666e+05,4.221e+04,3.201e+04,2.408e+05
128.4,1.224e+05,5.043e+04,2.870e+04,2.016e+05
130.1,9.206e+04,5.817e+04,2.755e+04,1.778e+05
131.8,6.354e+04,5.636e+04,2.491e+04,1.448e+05
133.5,1.966e+04,2.359e+04,9.216e+03,5.247e+04
135.3,3.243e+03,1.009e+04,1.068e+03,1.440e+04
137.0,1.241e+03,3.082e+03,6.953e+02,5.018e+03
138.7,8.117e+02,1.562e+03,6.264e+02,3.000e+03
140.4,7.608e+02,1.512e+03,6.037e+02,2.877e+03
142.1,7.979e+02,1.535e+03,6.820e+02,3.015e+03
143.8,8.901e+02,1.363e+03,7.215e+02,2.975e+03
145.5,9.444e+02,1.125e+03,5.830e+02,2.652e+03
147.2,9.840e+02,8.994e+02,4.314e+02,2.315e+03
148.9,9.284e+02,7.096e+02,3.278e+02,1.966e+03
150.7,8.304e+02,6.553e+02,3.187e+02,1.804e+03
152.4,8.403e+02,1.347e+03,3.508e+02,2.538e+03
154.1,1.402e+03,4.276e+03,3.017e+02,5.980e+03
155.8,2.647e+03,7.981e+03,2.466e+02,1.087e+04
157.5,3.868e+03,1.051e+04,2.237e+02,1.460e+04
159.2,5.844e+03,1.380e+04,1.441e+02,1.979e+04
160.9,8.783e+03,1.802e+04,1.013e+02,2.691e+04
162.6,1.147e+04,2.063e+04,1.570e+02,3.225e+04
164.4,1.350e+04,2.208e+04,3.052e+02,3.588e+04
166.1,1.512e+04,2.354e+04,5.829e+02,3.924e+04
167.8,1.631e+04,2.398e+04,9.954e+02,4.128e+04
169.5,1.734e+04,2.386e+04,1.493e+03,4.270e+04
171.2,2.372e+04,2.967e+04,2.743e+03,5.613e+04
172.9,3.340e+04,3.868e+04,4.738e+03,7.681e+04
174.6,3.053e+04,3.229e+04,5.237e+03,6.806e+04
176.3,2.374e+04,2.239e+04,4.698e+03,5.084e+04
178.1,1.711e+04,1.456e+04,4.333e+03,3.600e+04
179.8,1.253e+04,9.788e+03,4.329e+03,2.665e+04
181.5,8.693e+03,5.383e+03,3.427e+03,1.750e+04
183.2,6.113e+03,2.756e+03,2.775e+03,1.165e+04
184.9,5.819e+03,2.689e+03,3.099e+03,1.161e+04
186.6,5.481e+03,2.705e+03,3.485e+03,1.167e+04
188.3,4.619e+03,2.321e+03,3.488e+03,1.043e+04
190.0,3.929e+03,1.644e+03,3.220e+03,8.793e+03
191.7,3.114e+03,1.303e+03,2.957e+03,7.374e+03
193.5,2.678e+03,1.347e+03,3.340e+03,7.365e+03
195.2,2.576e+03,1.649e+03,3.598e+03,7.823e+03
196.9,2.572e+03,2.067e+03,3.954e+03,8.593e+03
198.6,2.629e+03,2.586e+03,4.865e+03,1.008e+04
